ppg
timestamp	value
1623665283476	5099860
1623665283511	5100085
1623665283554	5100731
1623665283579	5105342
1623665283612	5109183
1623665283644	5108097
1623665283678	5108350
1623665283714	5104082
1623665283752	5100684
1623665283785	5099681
1623665283815	5103414
1623665283851	5103090
1623665283882	5101362
1623665283918	5101854
1623665283951	5102989
1623665283999	5105129
1623665284020	5103799
1623665284053	5102630
1623665284089	5102436
1623665284121	5103135
1623665284155	5104720
1623665284197	5107230
1623665284222	5106728
1623665284254	5108569
1623665284288	5110623
1623665284325	5111372
1623665284361	5112087
1623665284394	5113496
1623665284424	5113550
1623665284457	5115306
1623665284490	5116963
1623665284524	5117525
1623665284559	5118748
1623665284592	5117576
1623665284625	5114189
1623665284660	5110110
1623665284695	5107746
1623665284726	5109236
1623665284761	5109323
1623665284798	5109434
1623665284827	5108501
1623665284860	5107818
1623665284895	5107928
1623665284928	5106189
1623665284963	5105581
1623665285003	5106363
1623665285036	5106555
1623665285065	5107174
1623665285099	5108125
1623665285131	5110146
1623665285166	5111323
1623665285201	5113619
1623665285235	5114750
1623665285267	5116158
1623665285304	5115663
1623665285335	5117233
1623665285368	5118779
1623665285405	5118620
1623665285435	5120152
1623665285483	5121901
1623665285498	5120496
1623665285538	5118452
1623665285571	5114647
1623665285602	5112259
1623665285646	5111596
1623665285678	5110581
1623665285706	5111211
1623665285744	5110333
1623665285777	5108996
1623665285810	5108517
1623665285843	5107865
1623665285878	5106261
1623665285926	5104944
1623665285958	5105630
1623665285996	5106497
1623665286030	5106996
1623665286044	5108049
1623665286090	5109369
1623665286108	5110733
1623665286143	5112550
1623665286176	5112280
1623665286214	5112893
1623665286247	5112517
1623665286287	5113705
1623665286313	5112985
1623665286348	5114841
1623665286382	5115449
1623665286415	5116819
1623665286452	5113149
1623665286485	5108783
1623665286515	5103487
1623665286550	5101170
1623665286584	5101181
1623665286620	5099746
1623665286652	5099229
1623665286688	5099941
1623665286732	5098619
1623665286754	5097080
1623665286786	5097159
1623665286820	5096703
1623665286853	5094314
1623665286889	5094621
1623665286929	5096097
1623665286956	5097175
1623665286989	5096761
1623665287024	5100402
1623665287058	5100203
1623665287094	5101301
1623665287128	5103402
1623665287159	5105017
1623665287192	5104191
1623665287230	5105590
1623665287260	5107258
1623665287293	5109463
1623665287328	5110796
1623665287359	5111032
1623665287393	5111077
1623665287428	5107640
1623665287462	5102801
1623665287497	5100020
1623665287539	5101825
1623665287564	5101546
1623665287599	5099454
1623665287633	5099119
1623665287661	5099182
1623665287692	5099181
1623665287736	5098743
1623665287761	5098312
1623665287794	5097897
1623665287828	5098526
1623665287870	5100099
1623665287902	5099408
1623665287935	5100918
1623665287984	5101759
1623665288003	5103378
1623665288037	5105120
1623665288070	5105208
1623665288105	5105943
1623665288132	5105274
1623665288181	5106457
1623665288206	5108588
1623665288240	5108932
1623665288271	5110290
1623665288306	5111216
1623665288346	5111557
1623665288379	5109121
1623665288426	5105097
1623665288442	5099848
1623665288479	5100180
1623665288512	5098980
1623665288561	5099918
1623665288596	5099494
1623665288627	5099216
1623665288660	5099691
1623665288678	5099005
1623665288726	5099187
1623665288749	5096679
1623665288792	5097130
1623665288824	5097859
1623665288848	5098942
1623665288883	5099399
1623665288914	5101173
1623665288949	5101662
1623665288989	5102991
1623665289015	5102859
1623665289051	5103943
1623665289084	5105270
1623665289120	5104985
1623665289153	5106676
1623665289186	5107366
1623665289216	5108149
1623665289254	5108529
1623665289288	5111570
1623665289322	5111826
1623665289354	5111434
1623665289390	5107912
1623665289434	5104583
1623665289454	5100873
1623665289493	5100214
1623665289537	5100690
1623665289557	5100506
1623665289597	5099709
1623665289617	5100248
1623665289655	5099892
1623665289689	5098580
1623665289726	5098416
1623665289763	5097728
1623665289795	5096952
1623665289829	5096183
1623665289860	5097972
1623665289894	5098849
1623665289931	5099150
1623665289962	5099712
1623665289997	5101854
1623665290028	5102589
1623665290076	5103476
1623665290098	5104774
1623665290131	5108345
1623665290165	5108958
1623665290200	5111393
1623665290240	5112589
1623665290273	5113268
1623665290301	5113676
1623665290331	5113921
1623665290368	5110580
1623665290402	5105321
1623665290438	5101909
1623665290471	5100882
1623665290521	5101860
1623665290540	5101926
1623665290571	5101188
1623665290604	5100617
1623665290638	5099405
1623665290673	5098258
1623665290718	5095924
1623665290740	5097076
1623665290774	5096307
1623665290807	5095601
1623665290843	5096947
1623665290875	5097348
1623665290915	5098975
1623665290943	5099425
1623665290975	5099706
1623665291011	5099075
1623665291045	5097675
1623665291080	5099136
1623665291113	5098542
1623665291145	5099546
1623665291181	5099932
1623665291213	5102086
1623665291246	5103641
1623665291280	5107207
1623665291315	5106710
1623665291360	5104667
1623665291382	5098717
1623665291432	5095148
1623665291460	5095205
1623665291483	5094507
1623665291525	5093586
1623665291558	5092151
1623665291591	5094436
1623665291624	5094428
1623665291658	5092965
1623665291689	5090727
1623665291728	5089385
1623665291750	5090525
1623665291785	5090735
1623665291818	5091008
1623665291854	5090613
1623665291888	5092666
1623665291921	5093847
1623665291970	5094589
1623665291990	5095019
1623665292023	5094726
1623665292058	5095871
1623665292090	5097945
1623665292127	5098969
1623665292166	5099530
1623665292191	5101140
1623665292224	5102044
1623665292258	5101550
1623665292294	5101145
1623665292331	5096833
1623665292365	5091183
1623665292397	5087645
1623665292429	5086620
1623665292463	5086313
1623665292496	5085758
1623665292530	5085024
1623665292564	5086091
1623665292611	5085671
1623665292632	5083163
1623665292662	5082282
1623665292698	5082287
1623665292731	5082962
1623665292767	5083988
1623665292809	5086682
1623665292842	5088683
1623665292870	5089840
1623665292902	5091572
1623665292936	5093040
1623665292973	5095987
1623665293007	5095774
1623665293039	5096031
1623665293072	5097555
1623665293106	5099002
1623665293140	5098724
1623665293172	5099008
1623665293204	5099709
1623665293237	5095711
1623665293270	5092546
1623665293309	5089010
1623665293343	5084474
1623665293376	5082080
1623665293418	5082891
1623665293443	5083874
1623665293477	5081531
1623665293511	5079897
1623665293550	5080748
1623665293583	5080722
1623665293616	5078947
1623665293648	5078962
1623665293677	5077935
1623665293712	5078146
1623665293746	5078586
1623665293781	5080702
1623665293815	5080427
1623665293863	5081142
1623665293884	5081894
1623665293917	5081770
1623665293949	5080528
1623665293984	5082620
1623665294018	5084636
1623665294061	5083943
1623665294087	5087056
1623665294120	5088695
1623665294151	5089544
1623665294187	5090120
1623665294225	5087124
1623665294258	5085092
1623665294286	5078513
1623665294322	5073798
1623665294357	5071585
1623665294388	5071425
1623665294425	5068750
1623665294457	5066402
1623665294490	5066053
1623665294524	5063838
1623665294554	5060454
1623665294590	5059848
1623665294625	5057886
1623665294658	5055145
1623665294703	5054852
1623665294727	5053812
1623665294759	5053845
1623665294793	5052982
1623665294827	5053616
1623665294867	5052863
1623665294900	5054064
1623665294928	5054990
1623665294962	5055545
1623665294995	5055772
1623665295028	5056568
1623665295064	5061084
1623665295098	5062886
1623665295129	5065375
1623665295164	5066151
1623665295201	5064039
1623665295231	5059874
1623665295265	5054230
1623665295312	5052243
1623665295344	5054931
1623665295364	5054630
1623665295402	5055626
1623665295438	5058563
1623665295470	5058915
1623665295509	5060652
1623665295542	5064881
1623665295569	5064217
1623665295603	5060161
1623665295637	5060810
1623665295674	5061153
1623665295707	5061568
1623665295741	5061244
1623665295767	5064542
1623665295804	5064955
1623665295840	5064827
1623665295874	5066844
1623665295911	5066105
1623665295955	5066596
1623665295988	5068707
1623665296010	5070491
1623665296043	5072665
1623665296077	5075311
1623665296113	5074473
1623665296152	5076120
1623665296184	5075787
1623665296212	5070907
1623665296247	5066140
1623665296281	5064474
1623665296313	5065258
1623665296349	5063426
1623665296384	5064474
1623665296415	5064502
1623665296450	5062260
1623665296483	5062224
1623665296517	5062588
1623665296551	5060469
1623665296597	5059259
1623665296618	5060169
1623665296653	5060472
1623665296685	5060971
1623665296720	5059356
1623665296755	5061217
1623665296794	5064089
1623665296827	5062710
1623665296856	5065269
1623665296889	5066975
1623665296923	5067148
1623665296958	5067050
1623665296992	5068722
1623665297024	5070888
1623665297058	5069499
1623665297092	5066815
1623665297125	5068870
1623665297157	5061573
1623665297193	5056247
1623665297239	5054477
1623665297262	5051464
1623665297294	5048262
1623665297329	5049350
1623665297361	5050817
1623665297403	5047729
1623665297439	5045446
1623665297464	5046881
1623665297498	5045908
1623665297530	5044777
1623665297568	5044961
1623665297600	5045993
1623665297633	5046666
1623665297663	5047538
1623665297698	5050976
1623665297732	5053618
1623665297766	5053323
1623665297802	5053694
1623665297832	5052733
1623665297866	5052621
1623665297898	5053439
1623665297929	5054601
1623665297967	5053914
1623665298003	5054098
1623665298045	5050962
1623665298069	5045316
1623665298100	5042121
1623665298130	5040985
1623665298170	5042058
1623665298210	5041800
1623665298242	5041713
1623665298272	5042459
1623665298306	5041042
1623665298339	5040059
1623665298374	5041077
1623665298413	5040030
1623665298441	5037521
1623665298472	5038227
1623665298506	5040309
1623665298536	5040800
1623665298575	5039323
1623665298609	5040796
1623665298655	5042318
1623665298678	5042236
1623665298709	5041720
1623665298744	5044519
1623665298779	5046886
1623665298813	5048852
1623665298852	5050371
1623665298885	5050967
1623665298915	5054177
1623665298950	5053182
1623665298985	5048498
1623665299017	5046473
1623665299052	5045963
1623665299100	5045760
1623665299118	5044401
1623665299151	5043482
1623665299186	5042683
1623665299223	5040690
1623665299253	5039368
1623665299299	5037998
1623665299331	5037929
1623665299355	5040446
1623665299389	5041300
1623665299422	5044431
1623665299458	5048726
1623665299495	5052627
1623665299528	5054289
1623665299556	5056566
1623665299591	5059498
1623665299625	5060298
1623665299660	5059792
1623665299694	5063372
1623665299743	5067436
1623665299761	5068788
1623665299793	5069925
1623665299826	5073427
1623665299857	5075807
1623665299891	5072932
1623665299940	5068563
1623665299973	5068520
1623665299998	5070064
1623665300031	5068230
1623665300064	5069109
1623665300098	5071408
1623665300138	5068176
1623665300170	5068729
1623665300197	5068969
1623665300230	5066372
1623665300266	5064987
1623665300302	5064688
1623665300335	5065553
1623665300368	5069180
1623665300402	5068212
1623665300436	5067246
1623665300472	5063544
1623665300504	5062180
1623665300538	5064267
1623665300582	5065391
1623665300602	5065065
1623665300637	5066327
1623665300669	5065529
1623665300706	5065455
1623665300740	5066372
1623665300779	5065106
1623665300812	5064430
1623665300841	5065971
1623665300878	5063606
1623665300909	5059060
1623665300944	5055105
1623665300977	5050412
1623665301007	5051010
1623665301042	5052444
1623665301076	5054178
1623665301110	5053409
1623665301144	5051017
1623665301176	5052346
1623665301224	5053281
1623665301245	5051883
1623665301280	5051908
1623665301313	5053062
1623665301349	5054826
1623665301380	5056971
1623665301421	5058069
1623665301455	5059156
1623665301480	5060192
1623665301515	5061970
1623665301549	5061918
1623665301586	5062180
1623665301619	5063895
1623665301653	5064183
1623665301681	5063791
1623665301718	5062312
1623665301752	5062659
1623665301785	5062843
1623665301822	5061970
1623665301867	5060139
1623665301889	5055188
1623665301921	5049937
1623665301956	5048575
1623665301984	5047186
1623665302023	5048264
1623665302064	5047264
1623665302097	5045290
1623665302123	5047460
1623665302158	5048194
1623665302192	5048074
1623665302228	5047630
1623665302261	5047854
1623665302311	5048042
1623665302328	5048040
1623665302363	5048854
1623665302395	5048706
1623665302426	5049585
1623665302461	5049952
1623665302508	5050158
1623665302528	5050455
1623665302563	5052146
1623665302598	5052595
1623665302633	5053138
1623665302673	5053295
1623665302705	5055974
1623665302734	5057566
1623665302765	5057988
1623665302801	5056506
1623665302834	5054201
1623665302871	5051239
1623665302903	5048757
1623665302934	5046496
1623665302968	5047610
1623665303004	5046054
1623665303037	5044257
1623665303070	5041971
1623665303118	5042065
1623665303137	5040361
1623665303172	5040297
1623665303201	5038213
1623665303241	5035983
1623665303274	5035363
1623665303315	5035734
1623665303341	5035821
1623665303375	5035836
1623665303407	5038219
1623665303442	5039386
1623665303482	5041403
1623665303513	5043118
1623665303541	5043247
1623665303577	5043813
1623665303612	5044811
1623665303644	5045377
1623665303679	5047218
1623665303714	5050066
1623665303745	5050247
1623665303780	5051056
1623665303813	5052627
1623665303847	5050189
1623665303880	5043427
1623665303925	5041722
1623665303957	5041277
1623665303985	5039832
1623665304015	5038660
1623665304048	5035871
1623665304086	5033970
1623665304122	5032797
1623665304155	5032357
1623665304188	5030122
1623665304220	5028858
1623665304253	5027089
1623665304286	5027287
1623665304320	5028757
1623665304354	5030755
1623665304387	5029152
1623665304422	5030033
1623665304456	5031163
1623665304488	5032370
1623665304524	5032752
1623665304567	5034056
1623665304591	5034287
1623665304625	5034369
1623665304659	5035345
1623665304691	5036149
1623665304727	5038348
1623665304765	5038924
1623665304797	5039827
1623665304824	5039938
1623665304859	5039491
1623665304896	5037493
1623665304929	5033405
1623665304963	5036043
1623665304996	5037746
1623665305045	5036150
1623665305063	5033051
1623665305096	5032993
1623665305133	5031309
1623665305164	5029820
1623665305210	5029037
1623665305242	5030427
1623665305266	5029760
1623665305300	5028024
1623665305335	5027703
1623665305374	5031293
1623665305407	5035075
1623665305439	5036268
1623665305467	5038016
1623665305502	5039516
1623665305537	5039534
1623665305572	5040544
1623665305605	5042682
1623665305638	5042996
1623665305670	5042719
1623665305704	5044415
1623665305740	5047261
1623665305772	5051147
1623665305807	5052893
1623665305852	5053346
1623665305875	5051777
1623665305907	5048266
1623665305940	5046769
1623665305975	5045766
1623665306016	5046982
1623665306049	5045825
1623665306076	5043742
1623665306109	5041949
1623665306144	5041973
1623665306175	5042280
1623665306213	5041293
1623665306246	5038499
1623665306277	5039400
1623665306313	5037912
1623665306348	5038094
1623665306379	5042327
1623665306413	5042741
1623665306448	5043000
1623665306496	5046220
1623665306514	5047745
1623665306549	5046691
1623665306582	5047172
1623665306614	5048368
1623665306658	5048430
1623665306691	5048226
1623665306716	5049731
1623665306750	5049805
1623665306787	5051362
1623665306819	5051658
1623665306855	5049504
1623665306888	5044371
1623665306920	5039254
1623665306952	5038599
1623665306987	5041111
1623665307021	5042504
1623665307054	5043763
1623665307103	5046984
1623665307122	5047411
1623665307157	5046693
1623665307191	5046642
1623665307223	5045542
1623665307259	5043175
1623665307300	5043423
1623665307325	5042551
1623665307360	5044045
1623665307392	5043368
1623665307427	5042176
1623665307460	5042238
1623665307498	5042241
1623665307527	5041071
1623665307562	5039813
1623665307597	5040429
1623665307630	5039762
1623665307663	5039159
1623665307697	5039632
1623665307746	5040767
1623665307765	5041540
1623665307800	5040557
1623665307830	5037618
1623665307863	5033617
1623665307910	5029203
1623665307942	5025036
1623665307968	5024551
1623665308004	5024594
1623665308036	5024380
1623665308069	5023340
1623665308107	5023323
1623665308140	5024335
1623665308171	5023346
1623665308204	5020791
1623665308239	5020077
1623665308272	5020354
1623665308306	5021515
1623665308340	5023557
1623665308372	5022960
1623665308408	5024062
1623665308443	5024361
1623665308474	5026303
1623665308509	5026733
1623665308552	5027208
1623665308585	5026074
1623665308612	5026995
1623665308645	5029379
1623665308680	5031362
1623665308712	5033032
1623665308749	5034061
1623665308782	5034350
1623665308813	5034220
1623665308846	5031314
1623665308880	5026039
1623665308915	5020868
1623665308948	5020806
1623665308984	5018236
1623665309012	5017805
1623665309047	5017957
1623665309084	5017366
1623665309118	5017146
1623665309153	5017107
1623665309194	5015934
1623665309219	5014703
1623665309253	5015927
1623665309286	5017108
1623665309320	5018257
1623665309359	5019534
1623665309392	5020169
1623665309421	5020469
1623665309454	5022015
1623665309497	5023214
1623665309529	5026445
1623665309558	5027726
1623665309588	5028015
1623665309621	5030817
1623665309656	5033851
1623665309690	5034685
1623665309724	5035019
1623665309758	5037717
1623665309805	5039853
1623665309837	5039768
1623665309862	5036839
1623665309894	5032889
1623665309925	5029298
1623665309960	5028717
1623665310001	5027847
1623665310034	5027667
1623665310062	5026744
1623665310100	5024434
1623665310131	5025226
1623665310166	5027872
1623665310198	5024501
1623665310233	5023305
1623665310264	5023894
1623665310298	5025722
1623665310332	5026450
1623665310364	5028254
1623665310397	5028971
1623665310446	5029808
1623665310467	5029016
1623665310498	5029524
1623665310532	5029971
1623665310574	5030443
1623665310600	5029680
1623665310643	5031403
1623665310668	5032446
1623665310702	5032981
1623665310734	5034212
1623665310770	5036996
1623665310808	5035397
1623665310840	5032201
1623665310871	5028136
1623665310905	5025265
1623665310939	5026041
1623665310974	5027291
1623665311007	5025834
1623665311040	5024637
1623665311073	5025286
1623665311108	5025374
1623665311145	5025538
1623665311178	5023864
1623665311210	5022315
1623665311252	5023233
1623665311285	5024417
1623665311314	5024425
1623665311346	5025538
1623665311381	5030194
1623665311417	5030157
1623665311450	5029902
1623665311483	5031407
1623665311515	5034296
1623665311546	5035042
1623665311582	5033899
1623665311617	5034847
1623665311651	5037732
1623665311697	5037172
1623665311716	5037412
1623665311752	5037230
1623665311785	5035575
1623665311820	5031559
1623665311853	5024595
1623665311895	5020399
1623665311921	5017469
1623665311956	5016145
1623665311993	5014638
1623665312022	5011037
1623665312059	5008188
1623665312092	5005706
1623665312122	5005146
1623665312156	5002461
1623665312192	4999573
1623665312225	4999914
1623665312259	4998617
1623665312291	4999961
1623665312340	5000001
1623665312360	5001374
1623665312390	5002191
1623665312423	5002882
1623665312465	5004771
1623665312508	5004691
1623665312533	5003926
1623665312570	5005501
1623665312603	5006235
1623665312636	5006078
1623665312670	5007286
1623665312702	5008689
1623665312734	5005958
1623665312767	5004370
1623665312801	5001437
1623665312833	4996000
1623665312866	4991180
1623665312900	4990430
1623665312934	4989209
1623665312964	4986604
1623665312999	4986082
1623665313036	4984102
1623665313065	4982332
1623665313103	4981757
1623665313146	4981159
1623665313180	4980782
1623665313205	4981245
1623665313238	4981335
1623665313273	4984482
1623665313305	4986798
1623665313344	4988180
1623665313377	4990890
1623665313407	4992267
1623665313444	4991754
1623665313476	4994393
1623665313509	4994490
1623665313544	4994263
1623665313592	4996983
1623665313609	4996326
1623665313647	4994857
1623665313676	4996447
1623665313712	5000833
1623665313756	4998278
1623665313789	4990254
1623665313812	4986369
1623665313846	4984306
1623665313883	4983276
1623665313913	4985800
1623665313953	4984609
1623665313986	4980829
1623665314015	4982263
1623665314049	4982017
1623665314083	4982901
1623665314118	4983079
1623665314151	4984713
1623665314185	4987645
1623665314218	4990033
1623665314248	4990799
1623665314284	4990785
1623665314317	4993404
1623665314354	4995713
1623665314399	4996750
1623665314420	4999686
1623665314453	4998885
1623665314486	4997977
1623665314523	4999829
1623665314558	5003530
1623665314595	5004116
1623665314622	5004594
1623665314657	5008257
1623665314688	5013040
1623665314723	5013395
1623665314760	5010820
1623665314794	5007985
1623665314827	5004541
1623665314860	5002224
1623665314893	5004431
1623665314926	5002162
1623665314960	5002082
1623665315007	5000292
1623665315041	5000165
1623665315064	5000014
1623665315097	4998118
1623665315129	4998409
1623665315162	4998907
1623665315205	4999008
1623665315237	4999423
1623665315264	5000086
1623665315300	5003924
1623665315332	5003424
1623665315365	5004938
1623665315402	5004706
1623665315435	5005406
1623665315463	5004668
1623665315499	5004076
1623665315536	5005552
1623665315577	5005330


Heartbeats raw:
timestamp	RR
1623665277927	0
1623665278334	407
1623665279026	692
1623665279581	555
1623665280114	533
1623665280655	541
1623665281022	367
1623665281499	477
1623665281975	476
1623665282647	672
1623665283273	626
1623665283820	547
1623665284748	928
1623665285681	933
1623665286612	931
1623665287551	939
1623665288539	988
1623665289537	998
1623665290510	973
1623665291494	984
1623665292474	980
1623665293412	938
1623665294397	985
1623665295359	962
1623665296344	985
1623665302012	5668
1623665302971	959
1623665304161	1190
1623665304980	819
1623665305748	768
1623665309007	3259
1623665310004	997
